Time;Active Instrument A Channel 4 Voltage Avg;Active Instrument A Channel 4 Current Avg;Active Instrument A Channel 4 Power Avg
0.71651328;0.022564128;0.107677355;0.002429646
0.7175168;0.029729337;0.107673071;0.003201049
0.71852032;0.036833238;0.107661396;0.003965518
0.71952384;0.043934219;0.107690461;0.004731296
0.72052736;0.051043957;0.107705891;0.005497735
0.72153088;0.058065142;0.107696034;0.006253386
0.7225344;0.065131091;0.107696816;0.007014411
0.72353792;0.072097778;0.107658543;0.007761942
0.72454144;0.079145238;0.107605994;0.008516502
0.72554496;0.086226754;0.107588604;0.009277016
0.72654848;0.093299516;0.107592106;0.010038291
0.727552;0.100266203;0.107604951;0.01078914
0.72855552;0.107440174;0.107615851;0.011562266
0.72955904;0.114485681;0.107632712;0.012322404
0.73056256;0.12145821;0.107613511;0.013070544
0.73156608;0.128380135;0.107598461;0.013813505
0.7325696;0.135453865;0.107555389;0.014568793
0.73357312;0.142515928;0.107528143;0.015324473
0.73457664;0.149429083;0.107512049;0.016065427
0.73558016;0.156519368;0.107526325;0.016829952
0.73658368;0.163438365;0.107532814;0.017574987
0.7375872;0.170461506;0.10753151;0.018329983
0.73859072;0.177615032;0.107556559;0.019103662
0.73959424;0.184465915;0.107549287;0.019839178
0.74059776;0.191640854;0.107502058;0.020601786
0.74160128;0.198438212;0.107453406;0.021322862
0.7426048;0.205569372;0.107465595;0.022091635
0.74360832;0.212575957;0.107442118;0.022839611
0.74461184;0.219431698;0.10745509;0.023579053
0.74561536;0.226624161;0.107466504;0.024354506
0.74661888;0.233635604;0.107540205;0.025125221
0.7476224;0.240715176;0.107458465;0.025866883
0.74862592;0.24777627;0.106134735;0.026297669
0.74962944;0.254941463;0.106632464;0.027185036
0.75063296;0.261918873;0.106849536;0.02798591
0.75163648;0.268802851;0.106945939;0.028747373
0.75264;0.275681943;0.106987856;0.02949462
0.75364352;0.282791674;0.107028075;0.030266648
0.75464704;0.289890707;0.107713424;0.03122512
0.75565056;0.296844751;0.108485185;0.032203258
0.75665408;0.304047912;0.108040266;0.032849417
0.7576576;0.311021417;0.107812032;0.033531851
0.75866112;0.31807375;0.107722118;0.034263578
0.75966464;0.325018048;0.10764388;0.034986204
0.76066816;0.33203727;0.1076767;0.035752677
0.76167168;0.33908084;0.107689418;0.036515418
0.7626752;0.346161395;0.107720561;0.0372887
0.76367872;0.353129059;0.107706808;0.038034404
0.76468224;0.360150248;0.107678391;0.038780399
0.76568576;0.367168516;0.107654124;0.039527205
0.76668928;0.374281168;0.107612863;0.040277468
0.7676928;0.381251752;0.107583933;0.041016563
0.76869632;0.388240814;0.107608847;0.041778146
0.76969984;0.395114094;0.10762468;0.042524028
0.77070336;0.402252048;0.107636869;0.043297151
0.77170688;0.409360796;0.107629083;0.044059127
0.7727104;0.41644913;0.107611306;0.044814635
0.77371392;0.423397332;0.107574329;0.045546684
0.77471744;0.430583954;0.108844727;0.046866793
0.77572096;0.437473774;0.108373731;0.047410665
0.77672448;0.44459033;0.108100861;0.048060598
0.777728;0.451502502;0.108025223;0.048773658
0.77873152;0.458633661;0.10796579;0.049516745
0.77973504;0.4655945;0.107957743;0.050264531
0.78073856;0.472492099;0.1079427;0.051002073
0.78174208;0.479519129;0.107920118;0.051749761
0.7827456;0.486661941;0.107895337;0.052508554
0.78374912;0.493468076;0.107830591;0.053210955
0.78475264;0.500625491;0.107805155;0.053970009
0.78575616;0.507570744;0.107843176;0.054738041
0.78675968;0.514612377;0.107870162;0.05551132
0.7877632;0.521695852;0.107859008;0.056269597
0.78876672;0.528688848;0.107846804;0.057017403
0.78977024;0.535577655;0.107860819;0.057767844
0.79077376;0.542757452;0.107797243;0.058507757
0.79177728;0.549841881;0.10778024;0.05926209
0.7927808;0.55686307;0.107749492;0.060001713
0.79378432;0.563952386;0.107762992;0.060773197
0.79478784;0.571022213;0.107780635;0.061545137
0.79579136;0.577923715;0.107801788;0.06230121
0.79679488;0.585063636;0.107789069;0.063063465
0.7977984;0.592081904;0.107775964;0.063812198
0.79880192;0.599050522;0.107738592;0.06454086
0.79980544;0.606093109;0.107694745;0.065273043
0.80080896;0.613126934;0.107704476;0.066036515
0.80181248;0.620064437;0.10767372;0.066764644
0.802816;0.627121627;0.107704476;0.067543806
0.80381952;0.63411361;0.107716404;0.068304438
0.80482304;0.641094923;0.107689545;0.06903922
0.80582656;0.64819783;0.107687473;0.069802786
0.80683008;0.655234575;0.107664898;0.070545764
0.8078336;0.662149727;0.107641928;0.071275073
0.80883712;0.669138789;0.107590422;0.071992925
0.80984064;0.676181376;0.107583024;0.072745637
0.81084416;0.683277547;0.107611835;0.073528751
0.81184768;0.690171242;0.10762208;0.074277664
0.8128512;0.69720304;0.107639469;0.075046565
0.81385472;0.704343975;0.107624806;0.075804884
0.81485824;0.711308718;0.107602097;0.07653831
0.81586176;0.718503058;0.107584447;0.077299754
0.81686528;0.7254318;0.107528917;0.078004896
0.8178688;0.732500672;0.107518539;0.078757402
0.81887232;0.739483893;0.107525416;0.079513313
0.81987584;0.746687114;0.107545525;0.080302858
0.82087936;0.753580809;0.10755863;0.08105412
0.82188288;0.760486186;0.107537739;0.081780965
0.8228864;0.767633855;0.107527487;0.082541739
0.82388992;0.774684191;0.107526839;0.083299342
0.82489344;0.781579912;0.107484937;0.084008067
0.82589696;0.788559258;0.107452236;0.084732456
0.82690048;0.795588195;0.107460409;0.085494233
0.827904;0.802599669;0.107461832;0.086248831
0.82890752;0.809606254;0.107477009;0.087014059
0.82991104;0.816821039;0.107495695;0.087804746
0.83091456;0.823735237;0.107464693;0.088522455
0.83191808;0.830698967;0.10745535;0.089263049
0.8329216;0.837702692;0.107392289;0.089962809
0.83392512;0.844799757;0.107359849;0.090697574
0.83492864;0.851762593;0.10738074;0.091462898
0.83593216;0.858768165;0.107402667;0.092233992
0.83693568;0.86566186;0.107409418;0.092980236
0.8379392;0.872923374;0.107418887;0.093768458
0.83894272;0.879955292;0.107411362;0.094517197
0.83994624;0.887008607;0.107358813;0.095228191
0.84094976;0.89403075;0.107327677;0.095954244
0.84195328;0.900958478;0.107302502;0.096675099
0.8429568;0.908123732;0.107293285;0.097435579
0.84396032;0.915080607;0.107303932;0.098191748
0.84496384;0.922133923;0.107331567;0.098974078
0.84596736;0.929053009;0.107349209;0.099733106
0.84697088;0.936194837;0.10733182;0.100483496
0.8479744;0.943098247;0.107301719;0.101196064
0.84897792;0.950129151;0.10727343;0.101923613
0.84998144;0.957135737;0.107232697;0.102636247
0.85098496;0.96410048;0.107234895;0.103385214
0.85198848;0.971101284;0.107245408;0.104146153
0.852992;0.978144825;0.107250467;0.104906489
0.85399552;0.98525548;0.107263841;0.105682287
0.85499904;0.992121041;0.107256182;0.106411114
0.85600256;0.999160707;0.107216351;0.107126365
0.85700608;1.006257772;0.107196495;0.107867306
0.8580096;1.013219595;0.107186377;0.108603338
0.85901312;1.020233989;0.107168987;0.109337443
0.86001664;1.027314425;0.10714706;0.110073721
0.86102016;1.034465075;0.107158214;0.11085143
0.86202368;1.041541696;0.107183903;0.111636505
0.8630272;1.048539639;0.107190788;0.11239379
0.86403072;1.055519938;0.107161716;0.113111327
0.86503424;1.062422395;0.107142255;0.113830331
0.86603776;1.06950295;0.107121624;0.114566893
0.86704128;1.076581478;0.107096583;0.115298197
0.8680448;1.083560824;0.107071549;0.116018536
0.86904832;1.090716362;0.107075691;0.116789208
0.87005184;1.097628593;0.107116438;0.117574066
0.87105536;1.104610801;0.107112668;0.11831781
0.87205888;1.111667991;0.107097492;0.119056853
0.8730624;1.118659019;0.10709165;0.119799041
0.87406592;1.125670433;0.107036516;0.120487841
0.87506944;1.132842422;0.107006148;0.121221103
0.87607296;1.139757633;0.106981494;0.121932974
0.87707648;1.146714449;0.107001215;0.12269984
0.87808;1.153776646;0.107020944;0.123478266
0.87908352;1.160804629;0.107035346;0.124247126
0.88008704;1.167839408;0.107026905;0.124990237
0.88109056;1.174841166;0.106999658;0.125707603
0.88209408;1.181770802;0.106990583;0.126438347
0.8830976;1.189041138;0.106952824;0.127171307
0.88410112;1.196148872;0.106917009;0.127888659
0.88510464;1.203113675;0.106918432;0.128635027
0.88610816;1.210181594;0.106947623;0.129426045
0.88711168;1.217271805;0.106959179;0.130198393
0.8881152;1.224069238;0.106944509;0.130907483
0.88911872;1.231238365;0.106928036;0.1316539
0.89012224;1.238182664;0.106889628;0.132348884
0.89112576;1.245214462;0.106871076;0.133077409
0.89212928;1.252340794;0.106848754;0.133811053
0.8931328;1.259314299;0.106831767;0.134534771
0.89413632;1.266409397;0.106872246;0.135344016
0.89513984;1.273394585;0.106883533;0.136104912
0.89614336;1.280382752;0.10685797;0.136819102
0.89714688;1.287386417;0.106861211;0.137571672
0.8981504;1.294533968;0.106827736;0.138292133
0.89915392;1.301269174;0.106784403;0.138955252
0.90015744;1.308450818;0.106755473;0.139684286
0.90116096;1.315421462;0.106741585;0.140410172
0.90216448;1.32245338;0.106731854;0.141147902
0.903168;1.32943666;0.106743917;0.141909276
0.90417152;1.336591125;0.10675884;0.142692919
0.90517504;1.343526721;0.106756113;0.143429691
0.90617856;1.350764871;0.106742881;0.144184534
0.90718208;1.357694507;0.106689937;0.144852342
0.9081856;1.364878297;0.106677234;0.145601442
0.90918912;1.371822596;0.106640503;0.146291851
0.91019264;1.378921509;0.106646217;0.147056763
0.91119616;1.385863066;0.10664466;0.147794896
0.91219968;1.392973661;0.106696166;0.148624949
0.9132032;1.399982214;0.106676452;0.149345135
0.91420672;1.406920791;0.106662691;0.150065957
0.91521024;1.414113045;0.106635317;0.150794393
0.91621376;1.42086482;0.10658861;0.151448006
0.91721728;1.427988172;0.106579006;0.15219356
0.9182208;1.434993863;0.106556565;0.152908016
0.91922432;1.441958547;0.106571481;0.153671657
0.92022784;1.44907701;0.106569536;0.154427465
0.92123136;1.455958009;0.106587954;0.155187585
0.92223488;1.463165164;0.106550463;0.155900925
0.9232384;1.470018983;0.106591068;0.156690894
0.92424192;1.477066398;0.106543191;0.157371367
0.92524544;1.48408258;0.106495187;0.158047651
0.92624896;1.491029859;0.10646677;0.158745133
0.92725248;1.498168826;0.106461324;0.159497036
0.928256;1.505242467;0.106479615;0.160277638
0.92925952;1.512384415;0.106494926;0.161061266
0.93026304;1.519410372;0.106533721;0.161868441
0.93126656;1.526405334;0.106481045;0.162533236
0.93227008;1.533444166;0.106479354;0.163280145
0.9332736;1.540373802;0.106449641;0.163972239
0.93427712;1.547416329;0.106398523;0.164642812
0.93528064;1.554380178;0.106402151;0.165389395
0.93628416;1.561461568;0.106392421;0.166127676
0.93728768;1.56831646;0.106405392;0.166877328
0.9382912;1.575448513;0.106395148;0.167620077
0.93929472;1.582441568;0.106405534;0.16838054
0.94029824;1.589484096;0.10642045;0.169153613
0.94130176;1.596637607;0.106333643;0.169776294
0.94230528;1.603560448;0.10629952;0.170457705
0.9433088;1.610439658;0.106289662;0.171173088
0.94431232;1.617579579;0.10627681;0.171911198
0.94531584;1.624594808;0.106282391;0.17266582
0.94631936;1.631755233;0.106308736;0.173469836
0.94732288;1.638581872;0.106292509;0.174168978
0.9483264;1.645656466;0.106308214;0.1749468
0.94932992;1.652705908;0.106280193;0.175649902
0.95033344;1.659746647;0.106229976;0.176314846
0.95133696;1.666848421;0.106201299;0.177021467
0.95234048;1.673969984;0.106201813;0.177778647
0.953344;1.681106925;0.106191568;0.17851938
0.95434752;1.68792665;0.106217645;0.179287594
0.95535104;1.694990635;0.10622517;0.180050669
0.95635456;1.702026367;0.10618677;0.180732682
0.95735808;1.70900476;0.106149524;0.181410043
0.9583616;1.715936422;0.106099054;0.182059232
0.95936512;1.723117232;0.106082313;0.182792261
0.96036864;1.730092764;0.106137849;0.183628325
0.96137216;1.736970901;0.106140062;0.1843622
0.96237568;1.744051456;0.106128767;0.185094031
0.9633792;1.751137733;0.106105275;0.185804952
0.96438272;1.758099556;0.106144078;0.186611857
0.96538624;1.76506722;0.106083743;0.187244938
0.96638976;1.772143006;0.10602095;0.187884285
0.96739328;1.779189467;0.106044553;0.188673352
0.9683968;1.786190987;0.106025092;0.189381064
0.96940032;1.793187976;0.105994478;0.190068023
0.97040384;1.800188661;0.106013164;0.190843696
0.97140736;1.807061076;0.106020167;0.191584918
0.97241088;1.814060807;0.106050141;0.192381405
0.9734144;1.821384668;0.105990835;0.193050081
0.97441792;1.82852459;0.105957888;0.193746604
0.97542144;1.835391045;0.105949059;0.194457954
0.97642496;1.842284679;0.105903253;0.19510394
0.97742848;1.849541306;0.10591948;0.195902454
0.978432;1.856440902;0.105936602;0.19666504
0.97943552;1.863626599;0.105930507;0.197414911
0.98043904;1.870353818;0.105905853;0.198081417
0.98144256;1.877612472;0.105920643;0.19887792
0.98244608;1.884533525;0.105867445;0.19951075
0.9834496;1.89157784;0.105840974;0.20020644
0.98445312;1.898518443;0.105809584;0.200881447
0.98545664;1.905397534;0.10581594;0.20162143
0.98646016;1.912626028;0.105842277;0.202436695
0.98746368;1.919536233;0.105836302;0.203156617
0.9884672;1.926600218;0.105854861;0.203939999
0.98947072;1.933637023;0.105790764;0.204560938
0.99047424;1.940667868;0.105760008;0.205245049
0.99147776;1.947636485;0.105745219;0.205953246
0.99248128;1.954551578;0.105716161;0.20662769
0.9934848;1.961600065;0.105661921;0.207266432
0.99448832;1.96865809;0.105736658;0.208159327
0.99549184;1.97572422;0.105697729;0.208829563
0.99649536;1.982761979;0.105736792;0.209650891
0.99749888;1.989786863;0.105706945;0.210334291
0.9985024;1.996833444;0.105665684;0.210996771
0.99950592;2.003809929;0.105645567;0.211693636
1.00050944;2.01098299;0.10558407;0.212327769
1.00151296;2.017783165;0.105598219;0.213074308
1.00251648;2.024852991;0.105592243;0.21380877
1.00352;2.032018185;0.105605863;0.214593034
1.00452352;2.039006233;0.105598994;0.215317006
1.00552704;2.046056747;0.105583943;0.21603074
1.00653056;2.053001881;0.105566688;0.216728609
1.00753408;2.059976339;0.105524257;0.217377472
1.0085376;2.067010164;0.105492726;0.218054537
1.00954112;2.074039221;0.105457693;0.218723392
1.01054464;2.081002951;0.105449386;0.219440483
1.01154816;2.088033915;0.105468981;0.220222809
1.01255168;2.095093966;0.105514392;0.221062566
1.0135552;2.101907015;0.105503105;0.221757716
1.01455872;2.10914135;0.105443545;0.22239534
1.01556224;2.116050482;0.105416559;0.22306676
1.01656576;2.123191357;0.105406702;0.223798598
1.01756928;2.130269051;0.105375171;0.224477465
1.0185728;2.137362242;0.105343379;0.225156961
1.01957632;2.144553661;0.10538581;0.226005525
1.02057984;2.151367664;0.105373353;0.226696824
1.02158336;2.158487082;0.105359994;0.227418186
1.02258688;2.165518999;0.105342865;0.228121976
1.0235904;2.172514915;0.105327293;0.228825116
1.02459392;2.179620743;0.105239064;0.229381246
1.02559744;2.18652916;0.103827752;0.227022408
1.02660096;2.193538427;0.104234129;0.228641568
1.02760448;2.200582027;0.104449391;0.229849453
1.028608;2.207698584;0.104531266;0.230773527
1.02961152;2.214662313;0.104552932;0.231549438
1.03061504;2.221588135;0.104554363;0.232276731
1.03161856;2.228632689;0.104531661;0.232962676
1.03262208;2.235608101;0.104474567;0.233564188
1.0336256;2.242731571;0.104458608;0.234272617
1.03462912;2.249603033;0.104434863;0.234936984
1.03563264;2.256726265;0.104436152;0.235683807
1.03663616;2.263924599;0.104434341;0.236431474
1.03763968;2.270739555;0.104435511;0.237145846
1.0386432;2.277725458;0.104432523;0.237868617
1.03964672;2.284782648;0.104400091;0.238531516
1.04065024;2.291791439;0.10436739;0.239188292
1.04165376;2.298919439;0.104329765;0.239845724
1.04265728;2.305975676;0.104285516;0.240479863
1.0436608;2.313049555;0.104281619;0.241208553
1.04466432;2.320056915;0.104320548;0.24202961
1.04566784;2.327083111;0.104315877;0.242751715
1.04667136;2.334201574;0.104311593;0.243484284
1.04767488;2.341146708;0.104298748;0.244178671
1.0486784;2.34802103;0.104262419;0.244810353
1.04968192;2.355074406;0.104202598;0.245404872
1.05068544;2.362192869;0.104190409;0.246117842
1.05168896;2.369233608;0.104167707;0.246797633
1.05269248;2.376183748;0.104170427;0.247528075
1.053696;2.383290529;0.104200527;0.248340129
1.05469952;2.390340805;0.104197681;0.249067969
1.05570304;2.397211075;0.104161337;0.249696711
1.05670656;2.404424191;0.104133837;0.250381917
1.05771008;2.411345005;0.104094259;0.251007173
1.0587136;2.418294191;0.104061052;0.251650238
1.05971712;2.425318241;0.104039378;0.252328602
1.06072064;2.432173967;0.104052097;0.253072801
1.06172416;2.439367533;0.104051441;0.253819707
1.06272768;2.446395636;0.104056768;0.254564023
1.0637312;2.453480959;0.104017705;0.255205458
1.06473472;2.460569382;0.104018487;0.255944704
1.06573824;2.46765852;0.103964642;0.256549234
1.06674176;2.474680662;0.103922337;0.257174598
1.06774528;2.481595993;0.103911825;0.257867167
1.0687488;2.488612175;0.103924938;0.258628865
1.06975232;2.495553493;0.103936739;0.259379693
1.07075584;2.503089428;0.103929736;0.260145423
1.07175936;2.509919882;0.103917666;0.260825015
1.07276288;2.516828299;0.103918709;0.261545547
1.0737664;2.523922443;0.103854872;0.262121643
1.07476992;2.530715942;0.103847735;0.262809118
1.07577344;2.537883043;0.103794277;0.263417735
1.07677696;2.544855595;0.103791937;0.264135492
1.07778048;2.551706314;0.103771694;0.264794887
1.078784;2.558786869;0.103802197;0.265607698
1.07978752;2.565859795;0.103825159;0.266400802
1.08079104;2.572803974;0.103767678;0.266973895
1.08179456;2.579841852;0.103750937;0.267661009
1.08279808;2.58679986;0.103718631;0.26829934
1.0838016;2.593896866;0.103649467;0.268856028
1.08480512;2.601059198;0.103641167;0.269576811
1.08580864;2.608085155;0.103661671;0.270358466
1.08681216;2.615077019;0.10367997;0.271131107
1.08781568;2.622167587;0.103678927;0.271863521
1.0888192;2.62925005;0.103655443;0.272536078
1.08982272;2.636365652;0.103630394;0.273207611
1.09082624;2.643326521;0.103571489;0.273773265
1.09182976;2.65031743;0.103531525;0.274391404
1.09283328;2.657465935;0.103519723;0.275100137
1.0938368;2.664384127;0.103545539;0.275885091
1.09484032;2.671382904;0.103538282;0.276590397
1.09584384;2.678278446;0.103550345;0.277336656
1.09684736;2.685366869;0.103555404;0.27808425
1.09785088;2.692363739;0.103532307;0.278746629
1.0988544;2.699440479;0.103473403;0.279320291
1.09985792;2.706463575;0.103436291;0.279946555
1.10086144;2.713416576;0.103399314;0.280565413
1.10186496;2.72050786;0.103407741;0.281321571
1.10286848;2.727490187;0.103426561;0.28209493
1.103872;2.734594822;0.10342513;0.282825826
1.10487552;2.741575241;0.103433698;0.283571267
1.10587904;2.748614788;0.1033962;0.284196323
1.10688256;2.755829811;0.103378937;0.284894755
1.10788608;2.762639999;0.103338592;0.285487327
1.1088896;2.769809008;0.103298366;0.286116745
1.10989312;2.776856422;0.10328383;0.286804367
1.11089664;2.783863068;0.103316143;0.287617995
1.11190016;2.790910482;0.103275657;0.288233113
1.11290368;2.798027754;0.10330537;0.289051291
1.1139072;2.804929495;0.103289671;0.289720245
1.11491072;2.812030315;0.10325931;0.29036831
1.11591424;2.818868637;0.103212208;0.290941655
1.11691776;2.825946093;0.103193261;0.291618592
1.11792128;2.833046198;0.1031681;0.292279994
1.1189248;2.840084791;0.103166796;0.293002449
1.11992832;2.846923113;0.103158496;0.293684307
1.12093184;2.854031086;0.103187427;0.294500124
1.12193536;2.861029863;0.103156812;0.295134721
1.12293888;2.86802268;0.103135914;0.295796139
1.1239424;2.875062227;0.103100881;0.296421449
1.12494592;2.882052422;0.103059232;0.29702211
1.12594944;2.889031887;0.10302303;0.297636818
1.12695296;2.896096706;0.103025369;0.298371433
1.12795648;2.90320158;0.103058845;0.299200601
1.12896;2.910156488;0.103062473;0.299927925
1.12996352;2.917149782;0.103049502;0.300610832
1.13096704;2.924166918;0.103044957;0.301320654
1.13197056;2.931371927;0.103003442;0.301941399
1.13297408;2.93860054;0.102961533;0.302562816
1.1339776;2.945534229;0.102931298;0.303187662
1.13498112;2.952562094;0.102911577;0.30385282
